T [time], Theta [rad], Phi [rad], Om_Theta [rad/s], Om_Phi [rad/s] 
0.0000000000e+00, 1.0000000000e+00, 1.0000000000e+00, 0.0000000000e+00, 0.0000000000e+00, 
9.4247779608e-06, 9.9999999843e-01, 1.0000000005e+00, -3.3308844181e-04, 1.1102948026e-04, 
1.8849555922e-05, 9.9999999372e-01, 1.0000000021e+00, -6.6617688206e-04, 2.2205895790e-04, 
9.4247779608e-05, 9.9999984304e-01, 1.0000000523e+00, -3.3308841596e-03, 1.1102943717e-03, 
6.9743356910e-04, 9.9999140466e-01, 1.0000028651e+00, -2.4648438906e-02, 8.2160052237e-03, 
1.7172665199e-03, 9.9994788915e-01, 1.0000173694e+00, -6.0689678230e-02, 2.0227786402e-02, 
2.7370994707e-03, 9.9986761913e-01, 1.0000441211e+00, -9.6727573755e-02, 3.2233993474e-02, 
3.7800387531e-03, 9.9974752199e-01, 1.0000841381e+00, -1.3357644821e-01, 4.4503002575e-02, 
4.8301819114e-03, 9.9958776897e-01, 1.0001373537e+00, -1.7067205434e-01, 5.6843756345e-02, 
5.8733528528e-03, 9.9939051299e-01, 1.0002030385e+00, -2.0751147716e-01, 6.9086062983e-02, 
6.9119005587e-03, 9.9915596252e-01, 1.0002811081e+00, -2.4417569994e-01, 8.1254187896e-02, 
7.9522336357e-03, 9.9888284018e-01, 1.0003719698e+00, -2.8088887784e-01, 9.3419709168e-02, 
8.9954324743e-03, 9.9857062190e-01, 1.0004757764e+00, -3.1768688174e-01, 1.0559146696e-01, 
1.0039334479e-02, 9.9821977619e-01, 1.0005923476e+00, -3.5449116045e-01, 1.1774040559e-01, 
1.1082944276e-02, 9.9783063538e-01, 1.0007215453e+00, -3.9126440887e-01, 1.2985119956e-01, 
1.2126916908e-02, 9.9740297413e-01, 1.0008634137e+00, -4.2802748739e-01, 1.4192768103e-01, 
1.3171936704e-02, 9.9693645948e-01, 1.0010180290e+00, -4.6480220586e-01, 1.5397386992e-01, 
1.4218041822e-02, 9.9643098434e-01, 1.0011853892e+00, -5.0158756119e-01, 1.6598619827e-01, 
1.5265067059e-02, 9.9588654791e-01, 1.0013654532e+00, -5.3837536810e-01, 1.7795869396e-01, 
1.6313050270e-02, 9.9530305942e-01, 1.0015582066e+00, -5.7516454940e-01, 1.8988764463e-01, 
1.7362175215e-02, 9.9468033576e-01, 1.0017636613e+00, -6.1195909987e-01, 2.0177089535e-01, 
1.8412596394e-02, 9.9401818837e-01, 1.0019818272e+00, -6.4876192302e-01, 2.1360582942e-01, 
1.9464405784e-02, 9.9331645142e-01, 1.0022127028e+00, -6.8557366703e-01, 2.2538899462e-01, 
2.0517693510e-02, 9.9257494962e-01, 1.0024562851e+00, -7.2239485199e-01, 2.3711678771e-01, 
2.1572582499e-02, 9.9179347223e-01, 1.0027125787e+00, -7.5922707536e-01, 2.4878582859e-01, 
2.2629216884e-02, 9.9097177636e-01, 1.0029815939e+00, -7.9607259625e-01, 2.6039281200e-01, 
2.3687740260e-02, 9.9010960124e-01, 1.0032633420e+00, -8.3293356836e-01, 2.7193425220e-01, 
2.4748295971e-02, 9.8920666811e-01, 1.0035578352e+00, -8.6981204468e-01, 2.8340647502e-01, 
2.5811038199e-02, 9.8826267032e-01, 1.0038650893e+00, -9.0671035638e-01, 2.9480572478e-01, 
2.6876137317e-02, 9.8727726631e-01, 1.0041851257e+00, -9.4363128934e-01, 3.0612820377e-01, 
2.7943774318e-02, 9.8625008218e-01, 1.0045179704e+00, -9.8057788028e-01, 3.1736999275e-01, 
2.9014141210e-02, 9.8518070940e-01, 1.0048636541e+00, -1.0175534203e+00, 3.2852703540e-01, 
3.0087443366e-02, 9.8406870038e-01, 1.0052222136e+00, -1.0545615245e+00, 3.3959514127e-01, 
3.1163901009e-02, 9.8291356445e-01, 1.0055936919e+00, -1.0916061712e+00, 3.5056997692e-01, 
3.2243752732e-02, 9.8171476117e-01, 1.0059781405e+00, -1.1286918079e+00, 3.6144707459e-01, 
3.3327253053e-02, 9.8047169993e-01, 1.0063756186e+00, -1.1658232520e+00, 3.7222177734e-01, 
3.4414678860e-02, 9.7918372925e-01, 1.0067861957e+00, -1.2030058945e+00, 3.8288927046e-01, 
3.5506329120e-02, 9.7785013303e-01, 1.0072099525e+00, -1.2402456693e+00, 3.9344454036e-01, 
3.6602526032e-02, 9.7647012509e-01, 1.0076469813e+00, -1.2775490717e+00, 4.0388234434e-01, 
3.7703622517e-02, 9.7504283496e-01, 1.0080973894e+00, -1.3149233876e+00, 4.1419723489e-01, 
3.8810001684e-02, 9.7356730292e-01, 1.0085613004e+00, -1.3523766469e+00, 4.2438349977e-01, 
3.9922081635e-02, 9.7204246766e-01, 1.0090388556e+00, -1.3899177541e+00, 4.3443514582e-01, 
4.1040321206e-02, 9.7046715150e-01, 1.0095302182e+00, -1.4275566453e+00, 4.4434588073e-01, 
4.2165224282e-02, 9.6884004632e-01, 1.0100355753e+00, -1.4653043907e+00, 4.5410907031e-01, 
4.3297351669e-02, 9.6715968709e-01, 1.0105551447e+00, -1.5031735426e+00, 4.6371774679e-01, 
4.4437326625e-02, 9.6542443237e-01, 1.0110891781e+00, -1.5411782614e+00, 4.7316454256e-01, 
4.5585837892e-02, 9.6363244742e-01, 1.0116379638e+00, -1.5793343476e+00, 4.8244158608e-01, 
4.6743663464e-02, 9.6178165276e-01, 1.0122018395e+00, -1.6176599525e+00, 4.9154054221e-01, 
4.7911686201e-02, 9.5986968074e-01, 1.0127812013e+00, -1.6561759936e+00, 5.0045254380e-01, 
4.9090906491e-02, 9.5789383300e-01, 1.0133765122e+00, -1.6949064516e+00, 5.0916805994e-01, 
5.0282470368e-02, 9.5585100792e-01, 1.0139883181e+00, -1.7338791499e+00, 5.1767682944e-01, 
5.1487710955e-02, 9.5373759721e-01, 1.0146172719e+00, -1.7731269272e+00, 5.2596781039e-01, 
5.2708190342e-02, 9.5154937120e-01, 1.0152641589e+00, -1.8126887683e+00, 5.3402902563e-01, 
5.3945759927e-02, 9.4928131879e-01, 1.0159299324e+00, -1.8526114629e+00, 5.4184739798e-01, 
5.5202650155e-02, 9.4692741566e-01, 1.0166157676e+00, -1.8929521128e+00, 5.4940857958e-01, 
5.6481597379e-02, 9.4448029647e-01, 1.0173231371e+00, -1.9337816808e+00, 5.5669672183e-01, 
5.7786026429e-02, 9.4193078215e-01, 1.0180539210e+00, -1.9751900980e+00, 5.6369414582e-01, 
5.9120345193e-02, 9.3926712968e-01, 1.0188105837e+00, -2.0172945891e+00, 5.7038097079e-01, 
6.0490416039e-02, 9.3647383293e-01, 1.0195964587e+00, -2.0602530192e+00, 5.7673456755e-01, 
6.1904384904e-02, 9.3352953111e-01, 1.0204162498e+00, -2.1042874941e+00, 5.8272884367e-01, 
6.3374251937e-02, 9.3040306935e-01, 1.0212769821e+00, -2.1497292471e+00, 5.8833323407e-01, 
6.4913673112e-02, 9.2705733781e-01, 1.0221867417e+00, -2.1969453004e+00, 5.9349403978e-01, 
6.6503032769e-02, 9.2352713679e-01, 1.0231337335e+00, -2.2452765655e+00, 5.9803484937e-01, 
6.8121239839e-02, 9.1985430054e-01, 1.0241046478e+00, -2.2940365148e+00, 6.0180746892e-01, 
6.9733628788e-02, 9.1611656379e-01, 1.0250774347e+00, -2.3421569376e+00, 6.0468360514e-01, 
7.1310904986e-02, 9.1238551555e-01, 1.0260328282e+00, -2.3887675963e+00, 6.0661618452e-01, 
7.2856530963e-02, 9.0865836913e-01, 1.0269713326e+00, -2.4339871579e+00, 6.0763827974e-01, 
7.4384708331e-02, 9.0490493300e-01, 1.0279001286e+00, -2.4782406588e+00, 6.0777531712e-01, 
7.5881530948e-02, 9.0116328686e-01, 1.0288094213e+00, -2.5211357680e+00, 6.0704384667e-01, 
7.7314168791e-02, 8.9752225910e-01, 1.0296781012e+00, -2.5617639656e+00, 6.0552014476e-01, 
7.8681614735e-02, 8.9399289878e-01, 1.0305046832e+00, -2.6001445988e+00, 6.0329596526e-01, 
8.0008987763e-02, 8.9051702126e-01, 1.0313036420e+00, -2.6370202345e+00, 6.0040150993e-01, 
8.1313972113e-02, 8.8705229827e-01, 1.0320849078e+00, -2.6729016632e+00, 5.9683465572e-01, 
8.2599304492e-02, 8.8359421538e-01, 1.0328493992e+00, -2.7078754065e+00, 5.9260857344e-01, 
8.3863649185e-02, 8.8014896967e-01, 1.0335956623e+00, -2.7419162663e+00, 5.8774818082e-01, 
8.5108965166e-02, 8.7671372569e-01, 1.0343242536e+00, -2.7750882969e+00, 5.8226690995e-01, 
8.6339139891e-02, 8.7327990735e-01, 1.0350368609e+00, -2.8075042490e+00, 5.7616460500e-01, 
8.7556917309e-02, 8.6984163100e-01, 1.0357344761e+00, -2.8392431374e+00, 5.6943984722e-01, 
8.8763549552e-02, 8.6639691056e-01, 1.0364172181e+00, -2.8703429132e+00, 5.6209527337e-01, 
8.9959957500e-02, 8.6294453611e-01, 1.0370850186e+00, -2.9008319934e+00, 5.5413365868e-01, 
9.1147305766e-02, 8.5948244589e-01, 1.0377379423e+00, -2.9307441182e+00, 5.4555448446e-01, 
9.2326788491e-02, 8.5600832995e-01, 1.0383760558e+00, -2.9601126689e+00, 5.3635492112e-01, 
9.3499367400e-02, 8.5252041511e-01, 1.0389992815e+00, -2.9889641938e+00, 5.2653195949e-01, 
9.4665801576e-02, 8.4901741423e-01, 1.0396074183e+00, -3.0173194478e+00, 5.1608275963e-01, 
9.5826774488e-02, 8.4549817223e-01, 1.0402002111e+00, -3.0451967054e+00, 5.0500395195e-01, 
9.6982934964e-02, 8.4196155406e-01, 1.0407773716e+00, -3.0726128227e+00, 4.9329139844e-01, 
9.8134879722e-02, 8.3840650651e-01, 1.0413385678e+00, -3.0995828687e+00, 4.8094045720e-01, 
9.9283139950e-02, 8.3483210982e-01, 1.0418834178e+00, -3.1261198817e+00, 4.6794626583e-01, 
1.0042818957e-01, 8.3123756255e-01, 1.0424114943e+00, -3.1522351444e+00, 4.5430381196e-01, 
1.0157045914e-01, 8.2762214691e-01, 1.0429223324e+00, -3.1779385703e+00, 4.4000790631e-01, 
1.0271034294e-01, 8.2398521322e-01, 1.0434154325e+00, -3.2032389175e+00, 4.2505319987e-01, 
1.0384819822e-01, 8.2032618850e-01, 1.0438902612e+00, -3.2281438188e+00, 4.0943428891e-01, 
1.0498434721e-01, 8.1664457586e-01, 1.0443462522e+00, -3.2526598743e+00, 3.9314578457e-01, 
1.0611907840e-01, 8.1293995569e-01, 1.0447828085e+00, -3.2767927258e+00, 3.7618238806e-01, 
1.0725265055e-01, 8.0921197753e-01, 1.0451993043e+00, -3.3005471866e+00, 3.5853892029e-01, 
1.0838529351e-01, 8.0546036179e-01, 1.0455950872e+00, -3.3239272985e+00, 3.4021039151e-01, 
1.0951720796e-01, 8.0168490466e-01, 1.0459694790e+00, -3.3469363676e+00, 3.2119208684e-01, 
1.1064856387e-01, 7.9788548739e-01, 1.0463217771e+00, -3.3695769740e+00, 3.0147967792e-01, 
1.1177950648e-01, 7.9406206001e-01, 1.0466512583e+00, -3.3918511329e+00, 2.8106920316e-01, 
1.1291015743e-01, 7.9021464057e-01, 1.0469571809e+00, -3.4137603523e+00, 2.5995711788e-01, 
1.1404061070e-01, 7.8634333212e-01, 1.0472387857e+00, -3.4353055890e+00, 2.3814044401e-01, 
1.1517093132e-01, 7.8244833028e-01, 1.0474952982e+00, -3.4564872660e+00, 2.1561687797e-01, 
1.1630116170e-01, 7.7852990459e-01, 1.0477259331e+00, -3.4773054298e+00, 1.9238474644e-01, 
1.1743132012e-01, 7.7458840609e-01, 1.0479298964e+00, -3.4977597571e+00, 1.6844310535e-01, 
1.1856140153e-01, 7.7062426699e-01, 1.0481063888e+00, -3.5178496037e+00, 1.4379179436e-01, 
1.1969137525e-01, 7.6663801111e-01, 1.0482546085e+00, -3.5375739984e+00, 1.1843155843e-01, 
1.2082118553e-01, 7.6263025414e-01, 1.0483737550e+00, -3.5569316906e+00, 9.2364110074e-02, 
1.2195075843e-01, 7.5860168113e-01, 1.0484630333e+00, -3.5759213016e+00, 6.5592036956e-02, 
1.2307999908e-01, 7.5455305795e-01, 1.0485216573e+00, -3.5945413041e+00, 3.8118921598e-02, 
1.2420879466e-01, 7.5048522180e-01, 1.0485488533e+00, -3.6127901003e+00, 9.9493225665e-03, 
1.2533701252e-01, 7.4639908937e-01, 1.0485438641e+00, -3.6306660159e+00, -1.8911127717e-02, 
1.2646450518e-01, 7.4229563965e-01, 1.0485059522e+00, -3.6481674045e+00, -4.8455804711e-02, 
1.2759111058e-01, 7.3817591384e-01, 1.0484344035e+00, -3.6652926693e+00, -7.8677062391e-02, 
1.2871665758e-01, 7.3404099565e-01, 1.0483285303e+00, -3.6820403619e+00, -1.0956635334e-01, 
1.2984096262e-01, 7.2989202360e-01, 1.0481876743e+00, -3.6984091426e+00, -1.4111412010e-01, 
1.3096383476e-01, 7.2573017282e-01, 1.0480112096e+00, -3.7143978645e+00, -1.7330991663e-01, 
1.3208507823e-01, 7.2155664504e-01, 1.0477985440e+00, -3.7300056143e+00, -2.0614247951e-01, 
1.3320449536e-01, 7.1737265748e-01, 1.0475491213e+00, -3.7452317512e+00, -2.3959981727e-01, 
1.3432188857e-01, 7.1317943459e-01, 1.0472624220e+00, -3.7600759295e+00, -2.7366928511e-01, 
1.3543705960e-01, 7.0897821026e-01, 1.0469379651e+00, -3.7745380806e+00, -3.0833757966e-01, 
1.3654981299e-01, 7.0477021382e-01, 1.0465753083e+00, -3.7886184500e+00, -3.4359086860e-01, 
1.3765996037e-01, 7.0055665277e-01, 1.0461740470e+00, -3.8023176379e+00, -3.7941495943e-01, 
1.3876732026e-01, 6.9633871242e-01, 1.0457338144e+00, -3.8156365774e+00, -4.1579533332e-01, 
1.3987171900e-01, 6.9211755124e-01, 1.0452542808e+00, -3.8285765271e+00, -4.5271721683e-01, 
1.4097298991e-01, 6.8789430272e-01, 1.0447351537e+00, -3.8411390428e+00, -4.9016559805e-01, 
1.4207097985e-01, 6.8367004923e-01, 1.0441761738e+00, -3.8533260306e+00, -5.2812549396e-01, 
1.4316554595e-01, 6.7944583327e-01, 1.0435771148e+00, -3.8651396849e+00, -5.6658189284e-01, 
1.4425655439e-01, 6.7522266105e-01, 1.0429377832e+00, -3.8765824536e+00, -6.0551975843e-01, 
1.4534388522e-01, 6.7100148274e-01, 1.0422580139e+00, -3.8876570669e+00, -6.4492425016e-01, 
1.4642743117e-01, 6.6678319619e-01, 1.0415376686e+00, -3.8983664980e+00, -6.8478073180e-01, 
1.4750709581e-01, 6.6256865280e-01, 1.0407766349e+00, -3.9087139232e+00, -7.2507475621e-01, 
1.4858279353e-01, 6.5835865706e-01, 1.0399748248e+00, -3.9187026993e+00, -7.6579210593e-01, 
1.4965444986e-01, 6.5415396425e-01, 1.0391321719e+00, -3.9283363471e+00, -8.0691885118e-01, 
1.5072200072e-01, 6.4995528288e-01, 1.0382486302e+00, -3.9376185241e+00, -8.4844136027e-01, 
1.5178539504e-01, 6.4576326374e-01, 1.0373241696e+00, -3.9465530281e+00, -8.9034644267e-01, 
1.5284458954e-01, 6.4157851971e-01, 1.0363587779e+00, -3.9551437333e+00, -9.3262118471e-01, 
1.5389954987e-01, 6.3740162104e-01, 1.0353524580e+00, -3.9633945858e+00, -9.7525302312e-01, 
1.5495025032e-01, 6.3323309598e-01, 1.0343052264e+00, -3.9713095862e+00, -1.0182297655e+00, 
1.5599667270e-01, 6.2907343510e-01, 1.0332171118e+00, -3.9788927677e+00, -1.0615395707e+00, 
1.5703880657e-01, 6.2492308994e-01, 1.0320881536e+00, -3.9861481861e+00, -1.1051709847e+00, 
1.5807664632e-01, 6.2078248457e-01, 1.0309184030e+00, -3.9930798885e+00, -1.1491128397e+00, 
1.5911019256e-01, 6.1665200996e-01, 1.0297079201e+00, -3.9996919145e+00, -1.1933543298e+00, 
1.6013945322e-01, 6.1253201942e-01, 1.0284567708e+00, -4.0059882941e+00, -1.2378850783e+00, 
1.6116444050e-01, 6.0842284094e-01, 1.0271650289e+00, -4.0119730197e+00, -1.2826950214e+00, 
1.6218516709e-01, 6.0432479206e-01, 1.0258327797e+00, -4.0176500203e+00, -1.3277742558e+00, 
1.6320165098e-01, 6.0023816100e-01, 1.0244601130e+00, -4.0230231856e+00, -1.3731132541e+00, 
1.6421391385e-01, 5.9616321293e-01, 1.0230471238e+00, -4.0280963521e+00, -1.4187028077e+00, 
1.6522198173e-01, 5.9210018759e-01, 1.0215939105e+00, -4.0328733009e+00, -1.4645340629e+00, 
1.6622588151e-01, 5.8804931325e-01, 1.0201005782e+00, -4.0373577385e+00, -1.5105983732e+00, 
1.6722564133e-01, 5.8401080543e-01, 1.0185672380e+00, -4.0415532979e+00, -1.5568873165e+00, 
1.6822129004e-01, 5.7998486933e-01, 1.0169940072e+00, -4.0454635359e+00, -1.6033926719e+00, 
1.6921285799e-01, 5.7597169649e-01, 1.0153810071e+00, -4.0490919367e+00, -1.6501064613e+00, 
1.7020037866e-01, 5.7197145878e-01, 1.0137283603e+00, -4.0524419158e+00, -1.6970210241e+00, 
1.7118388469e-01, 5.6798432426e-01, 1.0120361958e+00, -4.0555168059e+00, -1.7441288358e+00, 
1.7216340978e-01, 5.6401044983e-01, 1.0103046456e+00, -4.0583198648e+00, -1.7914225953e+00, 
1.7313898677e-01, 5.6004998922e-01, 1.0085338482e+00, -4.0608542701e+00, -1.8388951314e+00, 
1.7411064793e-01, 5.5610309192e-01, 1.0067239473e+00, -4.0631231234e+00, -1.8865394140e+00, 
1.7507842780e-01, 5.5216989189e-01, 1.0048750864e+00, -4.0651294572e+00, -1.9343486921e+00, 
1.7604236015e-01, 5.4825052006e-01, 1.0029874141e+00, -4.0668762293e+00, -1.9823163439e+00, 
1.7700247789e-01, 5.4434510474e-01, 1.0010610839e+00, -4.0683663247e+00, -2.0304358710e+00, 
1.7795881377e-01, 5.4045376919e-01, 9.9909625294e-01, -4.0696025594e+00, -2.0787009261e+00, 
1.7891140040e-01, 5.3657663151e-01, 9.9709308144e-01, -4.0705876824e+00, -2.1271053152e+00, 
1.7986026946e-01, 5.3271380797e-01, 9.9505173435e-01, -4.0713243765e+00, -2.1756429540e+00, 
1.8080545304e-01, 5.2886540790e-01, 9.9297237836e-01, -4.0718152624e+00, -2.2243079321e+00, 
1.8174698236e-01, 5.2503153896e-01, 9.9085518436e-01, -4.0720628988e+00, -2.2730944447e+00, 
1.8268488743e-01, 5.2121230858e-01, 9.8870032823e-01, -4.0720697860e+00, -2.3219967733e+00, 
1.8361919705e-01, 5.1740782416e-01, 9.8650799086e-01, -4.0718383683e+00, -2.3710092798e+00, 
1.8454993934e-01, 5.1361819117e-01, 9.8427835701e-01, -4.0713710373e+00, -2.4201264296e+00, 
1.8547714300e-01, 5.0984350780e-01, 9.8201161202e-01, -4.0706701331e+00, -2.4693428587e+00, 
1.8640083581e-01, 5.0608387162e-01, 9.7970794534e-01, -4.0697379466e+00, -2.5186532874e+00, 
1.8732104484e-01, 5.0233937846e-01, 9.7736754992e-01, -4.0685767223e+00, -2.5680525324e+00, 
1.8823779674e-01, 4.9861012166e-01, 9.7499062149e-01, -4.0671886600e+00, -2.6175355151e+00, 
1.8915111665e-01, 4.9489619624e-01, 9.7257736126e-01, -4.0655759186e+00, -2.6670972038e+00, 
1.9006102807e-01, 4.9119769994e-01, 9.7012797660e-01, -4.0637406204e+00, -2.7167325979e+00, 
1.9096755604e-01, 4.8751472007e-01, 9.6764267234e-01, -4.0616848466e+00, -2.7664369008e+00, 
1.9187072512e-01, 4.8384734189e-01, 9.6512165591e-01, -4.0594106420e+00, -2.8162054087e+00, 
1.9277055860e-01, 4.8019565203e-01, 9.6256513962e-01, -4.0569200197e+00, -2.8660334615e+00, 
1.9366707873e-01, 4.7655973746e-01, 9.5997334006e-01, -4.0542149628e+00, -2.9159164540e+00, 
1.9456030732e-01, 4.7293968321e-01, 9.5734647637e-01, -4.0512974256e+00, -2.9658498657e+00, 
1.9545026357e-01, 4.6933558128e-01, 9.5468477688e-01, -4.0481693428e+00, -3.0158291346e+00, 
1.9633696888e-01, 4.6574751110e-01, 9.5198846473e-01, -4.0448326158e+00, -3.0658499256e+00, 
1.9722044552e-01, 4.6217554519e-01, 9.4925776138e-01, -4.0412891164e+00, -3.1159080536e+00, 
1.9810071332e-01, 4.5861976236e-01, 9.4649289663e-01, -4.0375407017e+00, -3.1659992969e+00, 
1.9897779130e-01, 4.5508024138e-01, 9.4369410396e-01, -4.0335892106e+00, -3.2161194829e+00, 
1.9985169863e-01, 4.5155705708e-01, 9.4086161738e-01, -4.0294364614e+00, -3.2662645409e+00, 
2.0072245421e-01, 4.4805028207e-01, 9.3799567266e-01, -4.0250842550e+00, -3.3164304774e+00, 
2.0159007658e-01, 4.4455998733e-01, 9.3509650765e-01, -4.0205343767e+00, -3.3666133659e+00, 
2.0245458376e-01, 4.4108624259e-01, 9.3216436263e-01, -4.0157885988e+00, -3.4168093393e+00, 
2.0331599288e-01, 4.3762911816e-01, 9.2919948173e-01, -4.0108486842e+00, -3.4670145621e+00, 
2.0417432194e-01, 4.3418867777e-01, 9.2620210682e-01, -4.0057163783e+00, -3.5172253325e+00, 
2.0502958896e-01, 4.3076498207e-01, 9.2317248016e-01, -4.0003934140e+00, -3.5674380313e+00, 
2.0588181077e-01, 4.2735809348e-01, 9.2011084865e-01, -3.9948815205e+00, -3.6176490490e+00, 
2.0673100322e-01, 4.2396807542e-01, 9.1701746335e-01, -3.9891824248e+00, -3.6678547941e+00, 
2.0757718375e-01, 4.2059498215e-01, 9.1389256999e-01, -3.9832978353e+00, -3.7180518434e+00, 
2.0842036912e-01, 4.1723886773e-01, 9.1073641700e-01, -3.9772294575e+00, -3.7682368072e+00, 
2.0926057531e-01, 4.1389978651e-01, 9.0754925595e-01, -3.9709789966e+00, -3.8184063210e+00, 
2.1009781859e-01, 4.1057778900e-01, 9.0433133764e-01, -3.9645481507e+00, -3.8685571053e+00, 
2.1093211504e-01, 4.0727292375e-01, 9.0108291369e-01, -3.9579386157e+00, -3.9186859365e+00, 
2.1176348132e-01, 4.0398523421e-01, 8.9780423337e-01, -3.9511520793e+00, -3.9687896934e+00, 
2.1259193348e-01, 4.0071476379e-01, 8.9449554846e-01, -3.9441902320e+00, -4.0188652788e+00, 
2.1341748726e-01, 3.9746155439e-01, 8.9115711169e-01, -3.9370547652e+00, -4.0689096411e+00, 
2.1424015787e-01, 3.9422564744e-01, 8.8778917790e-01, -3.9297473753e+00, -4.1189197554e+00, 
2.1505996101e-01, 3.9100707996e-01, 8.8439199986e-01, -3.9222697549e+00, -4.1688926840e+00, 
2.1587691367e-01, 3.8780588131e-01, 8.8096582449e-01, -3.9146235854e+00, -4.2188256259e+00, 
2.1669103271e-01, 3.8462207897e-01, 8.7751089868e-01, -3.9068105507e+00, -4.2687158271e+00, 
2.1750233411e-01, 3.8145570148e-01, 8.7402747250e-01, -3.8988323448e+00, -4.3185605330e+00, 
2.1831083316e-01, 3.7830677766e-01, 8.7051579848e-01, -3.8906906719e+00, -4.3683569975e+00, 
2.1911654505e-01, 3.7517533428e-01, 8.6697612904e-01, -3.8823872417e+00, -4.4181025187e+00, 
2.1991948726e-01, 3.7206138695e-01, 8.6340870591e-01, -3.8739237449e+00, -4.4677945832e+00, 
2.2071967683e-01, 3.6896495063e-01, 8.5981377162e-01, -3.8653018802e+00, -4.5174306990e+00, 
2.2151712950e-01, 3.6588604320e-01, 8.5619157385e-01, -3.8565233663e+00, -4.5670083357e+00, 
2.2231186260e-01, 3.6282467409e-01, 8.5254235195e-01, -3.8475899100e+00, -4.6165251066e+00, 
2.2310389305e-01, 3.5978085209e-01, 8.4886634600e-01, -3.8385032286e+00, -4.6659786418e+00, 
2.2389323754e-01, 3.5675458478e-01, 8.4516379602e-01, -3.8292650490e+00, -4.7153665959e+00, 
2.2467991278e-01, 3.5374587758e-01, 8.4143494086e-01, -3.8198771054e+00, -4.7646866622e+00, 
